id,x,y
0,13.900532,0.5078566
1,13.900251,0.5079682
2,13.898437,0.5104323
3,13.897264,0.88282317
4,13.875508,0.91662854
5,13.540122,1.0470595
6,13.199344,1.0391072
7,13.027213,0.8562706
8,12.910199,0.2704786
9,12.826283,0.16136384
10,12.814599,0.17898077
11,12.336444,0.711082
12,12.283382,0.68190783
13,12.294958,0.28324237
14,11.923837,0.34014344
15,11.572741,0.3969097
16,11.209942,0.34358987
17,10.76986,0.28849927
18,10.3398485,0.2639318
19,9.853882,0.22962038
20,9.544943,0.20763792
21,9.137959,0.27615628
22,8.8439865,-0.04862328
23,8.75167,-0.07017979
24,8.632098,-0.049378827
25,8.554614,0.32173663
26,8.482157,0.33659023
27,8.084864,0.094101906
28,7.6777396,0.09432685
29,7.156789,0.11327741
30,6.975343,0.109333456
31,6.8370767,0.106480174
32,6.50082,0.13302246
33,6.146389,0.16875584
34,5.6484556,0.19546656
35,5.161801,0.22137064
36,4.6166244,0.2355871
37,3.9446337,0.260067
38,3.0223978,0.26326534
39,2.5885324,0.25689816
40,1.4344833,0.24325405
41,-1.7331295,-0.17420563
42,-5.0967846,14.465538
43,-5.4980826,14.315162
44,-5.091383,14.466663
45,-5.1051655,14.462309
46,-5.550939,14.238464
47,-5.565548,14.223812
48,-5.4783797,13.88921
49,-4.765376,13.92619
50,-4.726289,13.896259
51,-4.9032326,13.545185
52,-5.175578,13.210115
53,-4.995076,12.952856
54,-4.652771,12.788132
55,-4.6505194,12.486407
56,-4.508062,12.210617
57,-4.474753,11.966895
58,-4.3695145,11.660968
59,-4.362871,11.36224
60,-4.3393326,11.304513
61,-4.220877,10.981373
62,-4.112647,10.6323
63,-4.000432,10.256432
64,-3.8810813,9.808084
65,-3.858125,9.726355
66,-3.7705655,9.356094
67,-3.6211724,8.887678
68,-3.55039,8.783369
69,-3.5236847,8.440316
70,-3.4986856,8.350718
71,-3.4863176,8.252548
72,-3.4111335,7.9352527
73,-3.3322015,7.493963
74,-3.2654283,7.0776753
75,-3.1795669,6.520288
76,-3.1076252,6.0410213
77,-3.0043325,5.3831263
78,-2.914729,4.7877593
79,-2.8867238,4.595222
80,-2.7791908,3.4591377
81,-2.6830409,2.8697035
82,-2.4758503,1.9407514
83,-1.7347902,-0.17271863
84,-13.922234,-7.465076
85,-13.922437,-7.4656267
86,-13.91808,-7.4628506
87,-13.908946,-7.4670033
88,-13.6306,-7.618233
89,-13.326269,-7.58115
90,-13.074672,-7.3780274
91,-13.038374,-6.986953
92,-12.639916,-7.0827217
93,-12.366355,-6.8028874
94,-12.409323,-6.6009626
95,-12.398994,-6.540674
96,-12.047783,-6.5729733
97,-11.699918,-6.481003
98,-11.35504,-6.2785172
99,-11.029996,-6.1098404
100,-10.666013,-5.979747
101,-10.202342,-5.906478
102,-10.094965,-5.830557
103,-10.174886,-5.509788
104,-10.097803,-5.425766
105,-9.563962,-5.611055
106,-9.463225,-5.5794954
107,-9.535761,-5.318889
108,-9.052898,-5.2242737
109,-8.885387,-5.174128
110,-8.432179,-4.9649086
111,-7.9795055,-4.7479577
112,-7.5833735,-4.5655584
113,-7.0775814,-4.319985
114,-6.833203,-4.165796
115,-6.524811,-4.0102315
116,-6.380921,-3.913005
117,-6.231195,-3.7963548
118,-5.7570353,-3.453901
119,-5.6347575,-3.3678818
120,-5.4200644,-3.2203448
121,-4.8497925,-2.7726927
122,-4.633838,-2.5908036
123,-3.2040224,-0.6868077
124,-2.0730062,0.01927036
125,19.78751,-18.516415
126,19.331163,-18.633774
127,19.71318,-18.30675
128,19.328758,-18.62932
129,19.32357,-18.630707
130,19.764006,-18.191591
131,19.614264,-17.913214
132,19.321188,-17.726
133,19.09783,-17.610098
134,18.542368,-18.049675
135,18.54509,-18.030426
136,18.612095,-17.412596
137,18.231094,-17.33607
138,17.737026,-17.60308
139,17.36762,-17.49173
140,17.32083,-17.488424
141,17.635504,-16.806824
142,17.43525,-16.44227
143,16.987988,-16.838203
144,17.321451,-16.272614
145,17.23397,-16.220661
146,17.074673,-16.422718
147,16.789501,-16.973782
148,16.470493,-16.67316
149,16.436342,-16.66223
150,16.421535,-16.025587
151,15.950442,-15.912677
152,15.551334,-15.653894
153,15.25294,-15.2710905
154,15.02526,-15.506426
155,14.975008,-15.503785
156,14.959618,-14.982674
157,14.455549,-15.0229225
158,14.443585,-14.898905
159,14.207442,-14.614982
160,13.801617,-14.36561
161,13.757042,-14.328096
162,13.410447,-14.072898
163,13.044253,-13.763264
164,13.004808,-13.738763
165,12.732205,-13.491688
166,12.342492,-13.193266
167,12.316659,-13.152434
168,12.004455,-12.907043
169,11.917361,-12.843762
170,11.649262,-12.611932
171,11.345111,-12.339842
172,11.059368,-12.0982685
173,10.7101555,-11.79896
174,10.442129,-11.563033
175,10.1399975,-11.305637
176,10.10151,-11.27339
177,9.867955,-11.0768585
178,9.613493,-10.843082
179,9.364848,-10.625549
180,9.27457,-10.547466
181,9.0232,-10.314945
182,8.689376,-10.019209
183,8.301429,-9.669999
184,7.9628863,-9.36265
185,7.696648,-9.122545
186,7.358719,-8.820278
187,6.995864,-8.500803
188,6.665181,-8.214143
189,6.3499284,-7.9371576
190,5.9434714,-7.5885653
191,5.3817463,-7.088977
192,4.769866,-6.5483828
193,-2.4310799,-1.3345034
194,-2.0659518,0.007926652
195,-18.576801,6.260527
196,-18.431116,6.387532
197,-18.702168,6.113999
198,-18.404716,6.394893
199,-18.578188,5.7905498
200,-18.316792,5.5081573
201,-18.281672,5.512092
202,-17.702757,5.9689927
203,-17.383833,5.856503
204,-17.389847,5.6529155
205,-17.554646,5.1564727
206,-17.533232,5.0846677
207,-17.524958,5.0745335
208,-16.96785,5.7292542
209,-16.641794,5.4443636
210,-16.711521,4.9963803
211,-16.300388,4.9685345
212,-16.096039,5.3821144
213,-15.751831,5.184359
214,-15.761144,4.8580394
215,-15.754379,4.7253556
216,-15.325451,4.7932134
217,-15.008371,4.684155
218,-14.670436,4.5523887
219,-14.254919,4.40195
220,-13.843916,4.249906
221,-13.453269,4.1097994
222,-13.148038,3.9994392
223,-12.876834,3.9015365
224,-12.449006,3.7401173
225,-12.112726,3.6239736
226,-12.029781,3.5946462
227,-11.699783,3.466215
228,-11.342696,3.3382835
229,-10.988014,3.2096932
230,-10.936746,3.1992116
231,-10.627187,3.0779922
232,-10.192529,2.9256415
233,-9.866371,2.817288
234,-9.499262,2.6854925
235,-9.042617,2.522416
236,-8.534345,2.3617334
237,-8.0969925,2.2318015
238,-6.763343,1.8542327
239,-5.9931364,1.6245122
240,-4.8318553,1.2605388
241,-3.3843412,0.7092163
242,-2.1065855,0.017978474
243,-4.960003,-20.006327
244,-4.6918726,-20.22529
245,-5.0108356,-19.932411
246,-4.4557815,-20.250315
247,-4.395897,-20.235916
248,-5.019276,-19.874844
249,-4.115741,-19.784023
250,-4.087978,-19.786297
251,-4.1668816,-19.728893
252,-4.749956,-19.30101
253,-4.8461018,-19.228813
254,-4.6046276,-18.963057
255,-3.9954295,-18.939335
256,-3.8195071,-18.655075
257,-3.7608676,-18.29486
258,-3.8236372,-17.925276
259,-4.274638,-17.862164
260,-4.3042374,-17.90057
261,-4.165665,-17.443815
262,-3.9622877,-17.104006
263,-3.5768595,-17.149294
264,-3.5362465,-17.10276
265,-3.8234606,-16.620049
266,-3.5237992,-16.363344
267,-3.4696577,-15.98897
268,-3.3670876,-15.684967
269,-3.3488681,-15.649621
270,-3.252557,-15.313141
271,-3.1102536,-14.854539
272,-2.9570956,-14.3338585
273,-2.8484876,-13.961919
274,-2.737081,-13.56998
275,-2.7199183,-13.514092
276,-2.6367393,-13.203365
277,-2.4785912,-12.736859
278,-2.505032,-12.6709175
279,-2.490324,-12.56825
280,-2.3622916,-12.160216
281,-2.2739942,-11.809243
282,-2.2058904,-11.4990225
283,-2.1258137,-11.149418
284,-2.100222,-11.052251
285,-2.041642,-10.7664795
286,-1.9601464,-10.380072
287,-1.8848047,-10.021542
288,-1.7557828,-9.395267
289,-1.6548557,-8.88657
290,-1.5630407,-8.359522
291,-1.4168257,-7.476427
292,-1.3797433,-7.1900992
293,-1.3038632,-6.6205277
294,-1.1948049,-5.6673546
295,-1.0874292,-3.7863553
296,-1.9623381,-1.0622085
297,-1.7422827,-0.17615403
298,13.1116,18.110996
299,12.833767,18.195456
300,12.828778,18.195658
301,13.232117,17.83914
302,12.545138,17.844505
303,13.1260195,17.502089
304,13.13493,17.492683
305,12.378004,17.597025
306,12.8646755,16.949066
307,12.417638,17.247904
308,12.816082,16.88697
309,12.332153,16.835598
310,11.851046,16.88418
311,12.001838,16.285604
312,11.416239,16.283714
313,11.433257,16.261683
314,11.5384655,15.673042
315,11.524943,15.61584
316,11.236491,15.483242
317,10.715557,15.550653
318,10.6503315,15.585573
319,10.57931,15.617647
320,10.697157,15.059729
321,10.298229,14.87675
322,10.073618,14.500927
323,10.024927,14.397377
324,9.627347,14.191852
325,9.541115,14.230034
326,9.528067,13.867012
327,9.254947,13.616056
328,9.045649,13.224205
329,8.9411955,12.912839
330,8.581155,12.7863
331,8.551676,12.77148
332,8.515001,12.358602
333,8.44366,12.297596
334,8.281434,12.026553
335,8.085174,11.755536
336,7.927615,11.472662
337,7.7222266,11.200258
338,7.476408,10.848489
339,7.2604814,10.53778
340,7.0798264,10.281469
341,6.951767,10.100507
342,6.707539,9.753939
343,6.43266,9.361922
344,6.2521434,9.111471
345,6.0225277,8.796699
346,5.7052965,8.369407
347,5.393645,7.940573
348,5.0644197,7.4848337
349,4.810852,7.152533
350,4.5637236,6.8168855
351,4.314516,6.448855
352,4.005927,6.030059
353,3.6422768,5.5223303
354,2.9859388,4.622937
355,2.7373672,4.2908936
356,0.8272253,1.9112521
357,-0.4377096,-0.27046564
358,-0.962236,-1.18285
359,-0.9620554,-1.1798686
360,-1.6988323,0.86457926
361,-1.5567384,0.8418693
362,-0.0713299,0.79249567
363,-0.07095405,0.7923095
364,-1.5397806,0.83548814
365,0.07645684,-1.0099857
366,-0.07011486,0.79217285
367,-1.6840643,0.86569595
368,-1.2221128,0.23133126
369,0.08192481,-0.99531406
370,0.07963105,-1.0021261
371,-0.8787626,-0.97167504
372,-0.7138593,1.0997263
373,-1.222346,0.23067574
374,-0.71411586,1.100746
375,-0.08863306,-1.3966348
376,-0.08765996,-1.3961693
377,-0.8832731,-0.9808322
